time,theta,energy
0.0,0.05,0.11942380915308685
0.01000667111407605,0.04991552928409114,0.13624506791962793
0.0200133422281521,0.049662034369298586,0.15311357122669422
0.030020013342228154,0.04923926686447572,0.1700373856703686
0.0400266844563042,0.04864681250700941,0.18702818087463494
0.05003335557038025,0.04788409074656719,0.2040997531182662
0.06004002668445631,0.04695035416195189,0.2212672405037391
0.07004669779853236,0.045844687710675736,0.23854668320185687
0.0800533689126084,0.04456600781075976,0.25595476726075533
0.09006004002668445,0.043113061254162005,0.2735086713958957
0.1000667111407605,0.041484423951140256,0.291225974213813
0.11007338225483655,0.03967849950476289,0.30912459830273603
0.12008005336891261,0.03769351761469574,0.32722277758912555
0.13008672448298866,0.03552753230931529,0.3455390398262791
0.1400933955970647,0.03317842000512957,0.36409219919673214
0.15010006671114076,0.030643877392430033,0.38290135584598184
0.1601067378252168,0.027921419146050782,0.40198590027910824
0.17011340893929286,0.025008375460078877,0.42136552124577703
0.1801200800533689,0.021901889405341442,0.44106021618143215
0.19012675116744496,0.018598914108494947,0.46109030356021247
0.200133422281521,0.015096209751560962,0.4814764367056394
0.21014009339559706,0.011390340390793603,0.502239618733144
0.2201467645096731,0.007477670593829245,0.5234012183855559
0.23015343562374915,0.003354361894162037,0.5231533000117369
0.24016010673782523,-0.0009710035870493846,0.5203847363758206
0.2501667778519013,-0.0054770339094280945,0.5150146516315235
0.2601734489659773,-0.010141740046922663,0.5069572879420897
0.2701801200800534,-0.014942488239483971,0.4961218122462537
0.2801867911941294,-0.01985595091226431,0.4824121437555725
0.2901934623082055,-0.024858056093981278,0.4657268075378456
0.3002001334222815,-0.029923935265279134,0.44609628523811146
0.31020680453635757,-0.03502786956699432,0.42377524980558356
0.3202134756504336,-0.040143234297160116,0.3981608304964191
0.33022014676450967,-0.04524244162433715,0.3691304875827861
0.3402268178785857,-0.050296881443399506,0.3365572362329587
0.35023348899266177,-0.05527686029820735,0.3003113381289406
0.3602401601067378,-0.06015153829362411,0.26026434726141157
0.37024683122081387,-0.06488886391705595,0.2162997445539038
0.3802535023348899,-0.06945550668707483,0.16834602223072934
0.39026017344896596,-0.07381678754370566,0.11651377639168167
0.400266844563042,-0.07793660689159365,0.06208970236427601
0.41027351567711806,-0.08177737020350487,0.030926225056669206
0.4202801867911941,-0.08529991108745157,0.08552472429198922
0.43028685790527016,-0.08846341171618544,0.15652630990637614
0.4402935290193462,-0.09122532051290146,0.23404391871344524
0.45030020013342226,-0.0935412669817999,0.3174703767228238
0.4603068712474983,-0.09536497356675765,0.4036144312095201
0.47031354236157435,-0.09665005172988915,0.4920942154137147
0.48032021347565046,-0.09735190984209474,0.5825573029371433
0.4903268845897265,-0.09742789270684463,0.6746477935016622
0.5003335557038026,-0.09683743244629502,0.7679944275408834
0.5103402268178786,-0.09554221126294003,0.8622049198461544
0.5203468979319547,-0.09350633662460991,0.9568624897247215
0.5303535690460307,-0.09069652945977322,1.0515232495334392
0.5403602401601068,-0.08708232599405956,1.1457139351004901
0.5503669112741828,-0.0826362939078575,1.2389297533375632
0.5603735823882589,-0.07733426354879624,1.3306322383038949
0.5703802535023349,-0.07115557499176903,1.420247057332488
0.580386924616411,-0.06408334180258976,1.5071617323566557
0.590393595730487,-0.05610473242886248,1.590723253350615
0.600400266844563,-0.04721127021239814,1.6702355671870075
0.6104069379586391,-0.03739915309046059,1.7449569291192941
0.6204136090727151,-0.026669594126859042,1.8140971069494538
0.6304202801867912,-0.015029184086664472,1.876814430515773
0.6404269513008672,-0.002490277337945457,1.932212681905198
0.6504336224149433,0.01092859757220265,1.979337825097836
0.6604402935290193,0.0252023012649934,2.017174577874789
0.6704469646430954,0.04029861935562105,2.044642834050878
0.6804536357571714,0.05617776928603984,2.060593950755791
0.6904603068712475,0.07279187668857814,2.0642939651159087
0.7004669779853235,0.09008470166670877,2.0550285893268927
0.7104736490993996,0.10799163943959167,2.0321071183992543
0.7204803202134756,0.1264397399987562,1.9948668438707549
0.7304869913275517,0.14534774957873794,1.9426780368569145
0.7404936624416277,0.1646261770556514,1.8749495834194307
0.7505003335557038,0.18417738870972455,1.792671764882116
0.7605070046697798,0.20389573511210501,1.6950055532855324
0.7705136757838559,0.2236677142138169,1.5804763265336004
0.7805203468979319,0.24337217501550426,1.4487154334408698
0.790527018012008,0.26288056646962843,1.2994395777334797
0.800533689126084,0.2820572365007526,1.1324735583953598
0.8105403602401601,0.30075978621324095,0.9477944252177375
0.8205470313542361,0.31883948447868876,0.7456446514204639
0.8305537024683122,0.33614174814880604,0.5269448485315807
0.8405603735823882,0.3525066931168444,0.29589270212755603
0.8505670446964643,0.36776976134888945,0.11617601086954132
0.8605737158105403,0.3817624288267007,0.3086045877124005
0.8705803869246164,0.3943129990928548,0.5940217678769955
0.8805870580386924,0.4052474867795836,0.9009419361376131
0.8905937291527685,0.41439059515480847,1.2240979523878552
0.9006004002668445,0.4215667913600474,1.5614312657710028
0.9106070713809206,0.4266014826807609,1.9112792958297884
0.9206137424949966,0.4293222969240075,2.2720098144540275
0.9306204136090727,0.4295604281780871,2.641916320013841
0.9406270847231487,0.42715200459995695,3.0191856176011305
0.9506337558372248,0.42193947183494374,3.4018876464992474
0.9606404269513009,0.4137729855912797,3.7879736833623947
0.970647098065377,0.4025118070678473,4.175278148932985
0.980653769179453,0.38802569538303705,4.561522053638395
0.9906604402935291,0.3701962918793084,4.9443171231046055
1.0006671114076051,0.3489184921710229,5.321170055057033
1.0106737825216812,0.3241018030350842,5.689486553960804
1.0206804536357572,0.295671682669144,6.046574904662413
1.0306871247498333,0.2635708643944586,6.389648935457386
1.0406937958639093,0.22776066547136173,6.715830308940762
1.0507004669779854,0.1882222842119578,7.022150178628298
1.0607071380920614,0.1449580898784993,7.30555036881585
1.0707138092061375,0.09799291078196937,7.562884380381573
1.0807204803202135,0.0473753263526634,7.790918700579806
1.0907271514342896,-0.006821031471224058,7.986335102812485
1.1007338225483656,-0.06449616363178559,8.145734862548514
1.1107404936624417,-0.12552237490670115,8.265646083347923
1.1207471647765177,-0.18974293340494408,8.342535611532153
1.1307538358905938,-0.2569707274506258,8.372827300425802
1.1407605070046698,-0.32698693641592724,8.3529286362119
1.1507671781187458,-0.39953974167109524,8.279257385116928
1.160773849232822,-0.47434310912357297,8.14827818455118
1.170780520346898,-0.5510756807002057,7.956550848007438
1.180787191460974,-0.6293798241241256,7.700791869472817
1.19079386257505,-0.708860902510253,7.3809230681533515
1.200800533689126,-0.7890868367311183,6.999148097998111
1.2108072048032021,-0.8695880430532384,6.54590318676583
1.2208138759172782,-0.9498578349119894,6.019396240590365
1.2308205470313542,-1.0293533795001515,5.418505766550614
1.2408272181454303,-1.1074972957674885,4.742940423960794
1.2508338892595063,-1.1836799693715694,3.9934630777145625
1.2608405603735824,-1.257262641425229,3.172331934961339
1.2708472314876584,-1.327581301544179,2.284686431533704
1.2808539026017345,-1.3939513825329803,1.3462603423868265
1.2908605737158105,-1.455673215824483,0.5124734388690553
1.3008672448298866,-1.5120381661988773,1.0767132628229241
1.3108739159439626,-1.5623353247912295,2.188980556342171
1.3208805870580387,-1.6058586047733743,
1.3308872581721147,0.0,
1.3408939292861908,0.0,
1.3509006004002668,0.0,
1.3609072715143429,0.0,
1.370913942628419,0.0,
1.380920613742495,0.0,
1.390927284856571,0.0,
1.400933955970647,0.0,
1.4109406270847231,0.0,
1.4209472981987992,0.0,
1.4309539693128752,0.0,
1.4409606404269513,0.0,
1.4509673115410273,0.0,
1.4609739826551034,0.0,
1.4709806537691794,0.0,
1.4809873248832555,0.0,
1.4909939959973315,0.0,
1.5010006671114076,0.0,
1.5110073382254836,0.0,
1.5210140093395597,0.0,
1.5310206804536357,0.0,
1.5410273515677118,0.0,
1.5510340226817878,0.0,
1.5610406937958639,0.0,
1.57104736490994,0.0,
1.581054036024016,0.0,
1.591060707138092,0.0,
1.601067378252168,0.0,
1.611074049366244,0.0,
1.6210807204803201,0.0,
1.6310873915943962,0.0,
1.6410940627084722,0.0,
1.6511007338225483,0.0,
1.6611074049366243,0.0,
1.6711140760507004,0.0,
1.6811207471647764,0.0,
1.6911274182788525,0.0,
1.7011340893929285,0.0,
1.7111407605070046,0.0,
1.7211474316210806,0.0,
1.7311541027351567,0.0,
1.7411607738492327,0.0,
1.7511674449633088,0.0,
1.7611741160773848,0.0,
1.7711807871914609,0.0,
1.781187458305537,0.0,
1.791194129419613,0.0,
1.801200800533689,0.0,
1.811207471647765,0.0,
1.8212141427618411,0.0,
1.8312208138759172,0.0,
1.8412274849899932,0.0,
1.8512341561040693,0.0,
1.8612408272181453,0.0,
1.8712474983322214,0.0,
1.8812541694462974,0.0,
1.8912608405603735,0.0,
1.9012675116744495,0.0,
1.9112741827885256,0.0,
1.9212808539026018,0.0,
1.9312875250166779,0.0,
1.941294196130754,0.0,
1.95130086724483,0.0,
1.961307538358906,0.0,
1.971314209472982,0.0,
1.9813208805870581,0.0,
1.9913275517011342,0.0,
2.0013342228152102,0.0,
2.0113408939292863,0.0,
2.0213475650433623,0.0,
2.0313542361574384,0.0,
2.0413609072715144,0.0,
2.0513675783855905,0.0,
2.0613742494996665,0.0,
2.0713809206137426,0.0,
2.0813875917278186,0.0,
2.0913942628418947,0.0,
2.1014009339559707,0.0,
2.1114076050700468,0.0,
2.121414276184123,0.0,
2.131420947298199,0.0,
2.141427618412275,0.0,
2.151434289526351,0.0,
2.161440960640427,0.0,
2.171447631754503,0.0,
2.181454302868579,0.0,
2.191460973982655,0.0,
2.201467645096731,0.0,
2.2114743162108073,0.0,
2.2214809873248833,0.0,
2.2314876584389594,0.0,
2.2414943295530354,0.0,
2.2515010006671115,0.0,
2.2615076717811875,0.0,
2.2715143428952635,0.0,
2.2815210140093396,0.0,
2.2915276851234156,0.0,
2.3015343562374917,0.0,
2.3115410273515677,0.0,
2.321547698465644,0.0,
2.33155436957972,0.0,
2.341561040693796,0.0,
2.351567711807872,0.0,
2.361574382921948,0.0,
2.371581054036024,0.0,
2.3815877251501,0.0,
2.391594396264176,0.0,
2.401601067378252,0.0,
2.4116077384923282,0.0,
2.4216144096064043,0.0,
2.4316210807204803,0.0,
2.4416277518345564,0.0,
2.4516344229486324,0.0,
2.4616410940627085,0.0,
2.4716477651767845,0.0,
2.4816544362908606,0.0,
2.4916611074049366,0.0,
2.5016677785190127,0.0,
2.5116744496330887,0.0,
2.5216811207471648,0.0,
2.531687791861241,0.0,
2.541694462975317,0.0,
2.551701134089393,0.0,
2.561707805203469,0.0,
2.571714476317545,0.0,
2.581721147431621,0.0,
2.591727818545697,0.0,
2.601734489659773,0.0,
2.611741160773849,0.0,
2.6217478318879253,0.0,
2.6317545030020013,0.0,
2.6417611741160774,0.0,
2.6517678452301534,0.0,
2.6617745163442295,0.0,
2.6717811874583055,0.0,
2.6817878585723816,0.0,
2.6917945296864576,0.0,
2.7018012008005337,0.0,
2.7118078719146097,0.0,
2.7218145430286858,0.0,
2.731821214142762,0.0,
2.741827885256838,0.0,
2.751834556370914,0.0,
2.76184122748499,0.0,
2.771847898599066,0.0,
2.781854569713142,0.0,
2.791861240827218,0.0,
2.801867911941294,0.0,
2.81187458305537,0.0,
2.8218812541694462,0.0,
2.8318879252835223,0.0,
2.8418945963975983,0.0,
2.8519012675116744,0.0,
2.8619079386257504,0.0,
2.8719146097398265,0.0,
2.8819212808539025,0.0,
2.8919279519679786,0.0,
2.9019346230820546,0.0,
2.9119412941961307,0.0,
2.9219479653102067,0.0,
2.931954636424283,0.0,
2.941961307538359,0.0,
2.951967978652435,0.0,
2.961974649766511,0.0,
2.971981320880587,0.0,
2.981987991994663,0.0,
2.991994663108739,0.0,
3.002001334222815,0.0,
3.012008005336891,0.0,
3.022014676450967,0.0,
3.0320213475650433,0.0,
3.0420280186791193,0.0,
3.0520346897931954,0.0,
3.0620413609072714,0.0,
3.0720480320213475,0.0,
3.0820547031354235,0.0,
3.0920613742494996,0.0,
3.1020680453635756,0.0,
3.1120747164776517,0.0,
3.1220813875917277,0.0,
3.1320880587058038,0.0,
3.14209472981988,0.0,
3.152101400933956,0.0,
3.162108072048032,0.0,
3.172114743162108,0.0,
3.182121414276184,0.0,
3.19212808539026,0.0,
3.202134756504336,0.0,
3.212141427618412,0.0,
3.222148098732488,0.0,
3.2321547698465642,0.0,
3.2421614409606403,0.0,
3.2521681120747163,0.0,
3.2621747831887924,0.0,
3.2721814543028684,0.0,
3.2821881254169445,0.0,
3.2921947965310205,0.0,
3.3022014676450966,0.0,
3.3122081387591726,0.0,
3.3222148098732487,0.0,
3.3322214809873247,0.0,
3.342228152101401,0.0,
3.352234823215477,0.0,
3.362241494329553,0.0,
3.372248165443629,0.0,
3.382254836557705,0.0,
3.392261507671781,0.0,
3.402268178785857,0.0,
3.412274849899933,0.0,
3.422281521014009,0.0,
3.4322881921280852,0.0,
3.4422948632421613,0.0,
3.4523015343562373,0.0,
3.4623082054703134,0.0,
3.4723148765843894,0.0,
3.4823215476984655,0.0,
3.4923282188125415,0.0,
3.5023348899266176,0.0,
3.5123415610406936,0.0,
3.5223482321547697,0.0,
3.5323549032688457,0.0,
3.5423615743829218,0.0,
3.552368245496998,0.0,
3.562374916611074,0.0,
3.57238158772515,0.0,
3.582388258839226,0.0,
3.592394929953302,0.0,
3.602401601067378,0.0,
3.612408272181454,0.0,
3.62241494329553,0.0,
3.632421614409606,0.0,
3.6424282855236823,0.0,
3.6524349566377583,0.0,
3.6624416277518343,0.0,
3.6724482988659104,0.0,
3.6824549699799864,0.0,
3.6924616410940625,0.0,
3.7024683122081385,0.0,
3.7124749833222146,0.0,
3.7224816544362906,0.0,
3.7324883255503667,0.0,
3.7424949966644427,0.0,
3.752501667778519,0.0,
3.762508338892595,0.0,
3.772515010006671,0.0,
3.782521681120747,0.0,
3.792528352234823,0.0,
3.802535023348899,0.0,
3.812541694462975,0.0,
3.822548365577051,0.0,
3.832555036691127,0.0,
3.8425617078052037,0.0,
3.8525683789192797,0.0,
3.8625750500333558,0.0,
3.872581721147432,0.0,
3.882588392261508,0.0,
3.892595063375584,0.0,
3.90260173448966,0.0,
3.912608405603736,0.0,
3.922615076717812,0.0,
3.932621747831888,0.0,
3.942628418945964,0.0,
3.95263509006004,0.0,
3.9626417611741163,0.0,
3.9726484322881923,0.0,
3.9826551034022684,0.0,
3.9926617745163444,0.0,
4.0026684456304205,0.0,
4.0126751167444965,0.0,
4.0226817878585726,0.0,
4.032688458972649,0.0,
4.042695130086725,0.0,
4.052701801200801,0.0,
4.062708472314877,0.0,
4.072715143428953,0.0,
4.082721814543029,0.0,
4.092728485657105,0.0,
4.102735156771181,0.0,
4.112741827885257,0.0,
4.122748498999333,0.0,
4.132755170113409,0.0,
4.142761841227485,0.0,
4.152768512341561,0.0,
4.162775183455637,0.0,
4.172781854569713,0.0,
4.182788525683789,0.0,
4.192795196797865,0.0,
4.202801867911941,0.0,
4.2128085390260175,0.0,
4.2228152101400935,0.0,
4.23282188125417,0.0,
4.242828552368246,0.0,
4.252835223482322,0.0,
4.262841894596398,0.0,
4.272848565710474,0.0,
4.28285523682455,0.0,
4.292861907938626,0.0,
4.302868579052702,0.0,
4.312875250166778,0.0,
4.322881921280854,0.0,
4.33288859239493,0.0,
4.342895263509006,0.0,
4.352901934623082,0.0,
4.362908605737158,0.0,
4.372915276851234,0.0,
4.38292194796531,0.0,
4.392928619079386,0.0,
4.402935290193462,0.0,
4.4129419613075385,0.0,
4.4229486324216145,0.0,
4.432955303535691,0.0,
4.442961974649767,0.0,
4.452968645763843,0.0,
4.462975316877919,0.0,
4.472981987991995,0.0,
4.482988659106071,0.0,
4.492995330220147,0.0,
4.503002001334223,0.0,
4.513008672448299,0.0,
4.523015343562375,0.0,
4.533022014676451,0.0,
4.543028685790527,0.0,
4.553035356904603,0.0,
4.563042028018679,0.0,
4.573048699132755,0.0,
4.583055370246831,0.0,
4.593062041360907,0.0,
4.603068712474983,0.0,
4.613075383589059,0.0,
4.6230820547031355,0.0,
4.6330887258172115,0.0,
4.643095396931288,0.0,
4.653102068045364,0.0,
4.66310873915944,0.0,
4.673115410273516,0.0,
4.683122081387592,0.0,
4.693128752501668,0.0,
4.703135423615744,0.0,
4.71314209472982,0.0,
4.723148765843896,0.0,
4.733155436957972,0.0,
4.743162108072048,0.0,
4.753168779186124,0.0,
4.7631754503002,0.0,
4.773182121414276,0.0,
4.783188792528352,0.0,
4.793195463642428,0.0,
4.803202134756504,0.0,
4.81320880587058,0.0,
4.8232154769846565,0.0,
4.8332221480987325,0.0,
4.843228819212809,0.0,
4.853235490326885,0.0,
4.863242161440961,0.0,
4.873248832555037,0.0,
4.883255503669113,0.0,
4.893262174783189,0.0,
4.903268845897265,0.0,
4.913275517011341,0.0,
4.923282188125417,0.0,
4.933288859239493,0.0,
4.943295530353569,0.0,
4.953302201467645,0.0,
4.963308872581721,0.0,
4.973315543695797,0.0,
4.983322214809873,0.0,
4.993328885923949,0.0,
5.003335557038025,0.0,
5.013342228152101,0.0,
5.0233488992661774,0.0,
5.0333555703802535,0.0,
5.0433622414943295,0.0,
5.053368912608406,0.0,
5.063375583722482,0.0,
5.073382254836558,0.0,
5.083388925950634,0.0,
5.09339559706471,0.0,
5.103402268178786,0.0,
5.113408939292862,0.0,
5.123415610406938,0.0,
5.133422281521014,0.0,
5.14342895263509,0.0,
5.153435623749166,0.0,
5.163442294863242,0.0,
5.173448965977318,0.0,
5.183455637091394,0.0,
5.19346230820547,0.0,
5.203468979319546,0.0,
5.213475650433622,0.0,
5.223482321547698,0.0,
5.2334889926617745,0.0,
5.2434956637758505,0.0,
5.253502334889927,0.0,
5.263509006004003,0.0,
5.273515677118079,0.0,
5.283522348232155,0.0,
5.293529019346231,0.0,
5.303535690460307,0.0,
5.313542361574383,0.0,
5.323549032688459,0.0,
5.333555703802535,0.0,
5.343562374916611,0.0,
5.353569046030687,0.0,
5.363575717144763,0.0,
5.373582388258839,0.0,
5.383589059372915,0.0,
5.393595730486991,0.0,
5.403602401601067,0.0,
5.413609072715143,0.0,
5.423615743829219,0.0,
5.4336224149432955,0.0,
5.4436290860573715,0.0,
5.4536357571714476,0.0,
5.463642428285524,0.0,
5.4736490993996,0.0,
5.483655770513676,0.0,
5.493662441627752,0.0,
5.503669112741828,0.0,
5.513675783855904,0.0,
5.52368245496998,0.0,
5.533689126084056,0.0,
5.543695797198132,0.0,
5.553702468312208,0.0,
5.563709139426284,0.0,
5.57371581054036,0.0,
5.583722481654436,0.0,
5.593729152768512,0.0,
5.603735823882588,0.0,
5.613742494996664,0.0,
5.62374916611074,0.0,
5.633755837224816,0.0,
5.6437625083388925,0.0,
5.6537691794529685,0.0,
5.663775850567045,0.0,
5.673782521681121,0.0,
5.683789192795197,0.0,
5.693795863909273,0.0,
5.703802535023349,0.0,
5.713809206137425,0.0,
5.723815877251501,0.0,
5.733822548365577,0.0,
5.743829219479653,0.0,
5.753835890593729,0.0,
5.763842561707805,0.0,
5.773849232821881,0.0,
5.783855903935957,0.0,
5.793862575050033,0.0,
5.803869246164109,0.0,
5.813875917278185,0.0,
5.823882588392261,0.0,
5.833889259506337,0.0,
5.8438959306204135,0.0,
5.8539026017344895,0.0,
5.863909272848566,0.0,
5.873915943962642,0.0,
5.883922615076718,0.0,
5.893929286190794,0.0,
5.90393595730487,0.0,
5.913942628418946,0.0,
5.923949299533022,0.0,
5.933955970647098,0.0,
5.943962641761174,0.0,
5.95396931287525,0.0,
5.963975983989326,0.0,
5.973982655103402,0.0,
5.983989326217478,0.0,
5.993995997331554,0.0,
6.00400266844563,0.0,
6.014009339559706,0.0,
6.024016010673782,0.0,
6.034022681787858,0.0,
6.044029352901934,0.0,
6.0540360240160105,0.0,
6.0640426951300865,0.0,
6.074049366244163,0.0,
6.084056037358239,0.0,
6.094062708472315,0.0,
6.104069379586391,0.0,
6.114076050700467,0.0,
6.124082721814543,0.0,
6.134089392928619,0.0,
6.144096064042695,0.0,
6.154102735156771,0.0,
6.164109406270847,0.0,
6.174116077384923,0.0,
6.184122748498999,0.0,
6.194129419613075,0.0,
6.204136090727151,0.0,
6.214142761841227,0.0,
6.224149432955303,0.0,
6.234156104069379,0.0,
6.244162775183455,0.0,
6.2541694462975315,0.0,
6.2641761174116075,0.0,
6.274182788525684,0.0,
6.28418945963976,0.0,
6.294196130753836,0.0,
6.304202801867912,0.0,
6.314209472981988,0.0,
6.324216144096064,0.0,
6.33422281521014,0.0,
6.344229486324216,0.0,
6.354236157438292,0.0,
6.364242828552368,0.0,
6.374249499666444,0.0,
6.38425617078052,0.0,
6.394262841894596,0.0,
6.404269513008672,0.0,
6.414276184122748,0.0,
6.424282855236824,0.0,
6.4342895263509,0.0,
6.444296197464976,0.0,
6.454302868579052,0.0,
6.4643095396931285,0.0,
6.4743162108072045,0.0,
6.484322881921281,0.0,
6.494329553035357,0.0,
6.504336224149433,0.0,
6.514342895263509,0.0,
6.524349566377585,0.0,
6.534356237491661,0.0,
6.544362908605737,0.0,
6.554369579719813,0.0,
6.564376250833889,0.0,
6.574382921947965,0.0,
6.584389593062041,0.0,
6.594396264176117,0.0,
